# x (mm) I (nA)
-15 0.992
-13 16.232
-11 1.675
-9 300.14
-7 1087.95
-5 2857.50
-3 5157.90
-1 7480.70
1 8569.50
3 8139.6
5 6593.0
7 4729.4
9 2974.5
11 1634.9
13 776.3
15 278.5
17 83.919
19 29.205
21 19.557
23 7.659